# First row contains the n, rho_max and omega values respectively. The other rows contains the data to be plotted 
# First column contains rho values. Second column contains the eigenvector for the ground state100             10              5
0.0990099         0.0183
0.19802      0.0682473
0.29703       0.128286
0.39604       0.171134
0.49505       0.180545
0.594059       0.158179
0.693069       0.118182
0.792079      0.0765277
0.891089       0.043412
0.990099       0.021738
1.08911     0.00966278
1.18812      0.0038297
1.28713     0.00135815
1.38614    0.000432253
1.48515    0.000123776
1.58416   3.19603e-005
1.68317   7.45649e-006
1.78218   1.57471e-006
1.88119    3.0154e-007
1.9802   5.24399e-008
2.07921   8.29482e-009
2.17822   1.19511e-009
2.27723    1.5706e-010
2.37624   1.88524e-011
2.47525   2.06956e-012
2.57426   2.08045e-013
2.67327   1.91764e-014
2.77228   1.62273e-015
2.87129   1.26173e-016
2.9703    9.0128e-018
3.06931   5.93421e-019
3.16832   3.73174e-020
3.26733   2.45964e-021
3.36634   2.34771e-022
3.46535   2.48607e-023
3.56436    1.2099e-023
3.66337   9.43639e-025
3.76238   2.97332e-025
3.86139     6.921e-027
3.9604    2.1442e-024
4.05941    8.4914e-025
4.15842   4.60068e-026
4.25743   5.17097e-025
4.35644   5.67493e-025
4.45545   1.58077e-025
4.55446   8.60881e-028
4.65347   1.74697e-025
4.75248   2.59003e-024
4.85149   8.03571e-025
4.9505   2.23442e-025
5.0495   4.27552e-025
5.14851    1.6465e-024
5.24752    4.2016e-026
5.34653   6.23499e-025
5.44554   2.10546e-024
5.54455    5.4782e-026
5.64356   7.33641e-025
5.74257   1.95707e-025
5.84158   4.75239e-026
5.94059   1.66677e-025
6.0396    1.1932e-024
6.13861   1.48189e-024
6.23762   5.81328e-025
6.33663   1.96919e-027
6.43564   3.58233e-025
6.53465   2.59262e-025
6.63366   2.15693e-026
6.73267   9.39271e-028
6.83168   1.28756e-029
6.93069   3.57802e-027
7.0297   6.05816e-027
7.12871   3.73874e-027
7.22772   1.00703e-027
7.32673   1.16987e-028
7.42574   6.20798e-031
7.52475    7.7037e-030
7.62376   6.07371e-030
7.72277   9.49857e-031
7.82178   8.90566e-033
7.92079   7.24324e-033
8.0198     3.324e-033
8.11881    1.8906e-033
8.21782   7.70224e-032
8.31683   1.43169e-030
8.41584   2.29312e-029
8.51485   2.86643e-028
8.61386   2.71243e-027
8.71287   1.81771e-026
8.81188   7.71898e-026
8.91089   1.62454e-025
9.0099   5.98496e-026
9.10891   2.37542e-025
9.20792    1.9055e-024
9.30693   1.01317e-024
9.40594   5.34853e-025
9.50495   6.39427e-025
9.60396    1.1143e-030
9.70297   4.73542e-024
9.80198   3.64628e-024
9.90099   1.65542e-025
